505.6644880174292     0
522.6579520697168     0
539.6514161220043     0.012941176470588012
548.1481481481482     0.012941176470588012
559.4771241830065     0.025882352941176023
565.1416122004357     0.03882352941176448
573.6383442265795     0.012941176470588012
582.1350762527234     0.012941176470588012
590.6318082788671     0.012941176470588012
599.1285403050109     0.025882352941176023
607.6252723311547     0.05176470588235249
618.9542483660131     0.07764705882352896
624.6187363834423     0.05176470588235249
638.7799564270153     0.012941176470588012
650.1089324618737     0.012941176470588012
655.7734204793028     0.012941176470588012
664.2701525054467     0.012941176470588012
672.7668845315904     0
684.0958605664489     0
695.4248366013072     0
703.921568627451     0
712.4183006535948     0
720.9150326797386     0
729.4117647058824     0.012941176470588012
737.9084967320262     0.025882352941176023
740.7407407407408     0.03882352941176448
746.40522875817     0.06470588235294095
749.2374727668846     0.09058823529411697
754.9019607843138     0.09058823529411697
763.3986928104575     0.05176470588235249
769.0631808278868     0.025882352941176023
777.5599128540305     0.012941176470588012
788.8888888888889     0.012941176470588012
797.3856209150327     0.025882352941176023
805.8823529411766     0.03882352941176448
811.5468409586057     0.06470588235294095
817.2113289760349     0.06470588235294095
825.7080610021787     0.03882352941176448
837.0370370370372     0.012941176470588012
845.5337690631809     0
859.6949891067538     -0.012941176470588456
879.520697167756     0
896.5141612200437     0
916.3398692810458     0
927.6688453159043     0
941.8300653594772     0
955.9912854030501     0
967.3202614379086     0.03882352941176448
970.1525054466231     0.09058823529411697
970.1525054466231     0.12941176470588234
975.8169934640523     0.14235294117647035
978.649237472767     0.18117647058823483
984.313725490196     0.19411764705882328
992.81045751634     0.14235294117647035
992.81045751634     0.09058823529411697
998.4749455337692     0.05176470588235249
1006.9716775599129     0.012941176470588012
1015.4684095860566     0.012941176470588012
1023.9651416122006     0
1043.7908496732027     0
1060.7843137254904     0
1086.2745098039218     0
1108.9324618736384     0
1123.0936819172114     0
1137.2549019607843     0
1148.5838779956428     0
1154.248366013072     0.03882352941176448
1157.0806100217867     0.06470588235294095
1162.7450980392157     0.11647058823529388
1171.2418300653596     0.11647058823529388
1179.7385620915034     0.10352941176470543
1185.4030501089326     0.06470588235294095
1196.732026143791     0.03882352941176448
1202.39651416122     0.05176470588235249
1210.893246187364     0.07764705882352896
1216.5577342047932     0.12941176470588234
1219.3899782135077     0.16823529411764682
1222.2222222222224     0.24588235294117622
1227.8867102396516     0.3235294117647056
1230.7189542483661     0.3623529411764701
1230.7189542483661     0.40117647058823547
1230.7189542483661     0.4529411764705884
1233.5511982570806     0.5176470588235293
1239.2156862745098     0.5176470588235293
1244.880174291939     0.4658823529411764
1247.7124183006538     0.38823529411764657
1250.5446623093683     0.28470588235294114
1253.376906318083     0.21999999999999975
1256.2091503267975     0.1552941176470588
1261.8736383442267     0.10352941176470543
1261.8736383442267     0.06470588235294095
1270.3703703703704     0.03882352941176448
1273.202614379085     0.012941176470588012
1281.6993464052289     -0.012941176470588456
1295.8605664488018     -0.012941176470588456
1304.3572984749455     -0.012941176470588456
1312.8540305010895     -0.012941176470588456
1321.3507625272332     -0.012941176470588456
1327.0152505446624     0
1332.6797385620916     0.03882352941176448
1335.5119825708061     0.07764705882352896
1341.1764705882354     0.14235294117647035
1344.00871459695     0.18117647058823483
1344.00871459695     0.23294117647058776
1346.8409586056646     0.28470588235294114
1346.8409586056646     0.3623529411764701
1346.8409586056646     0.42705882352941194
1352.5054466230938     0.43999999999999995
1352.5054466230938     0.4788235294117644
1352.5054466230938     0.5564705882352943
1352.5054466230938     0.6082352941176472
1355.3376906318083     0.6470588235294117
1355.3376906318083     0.6858823529411762
1355.3376906318083     0.763529411764706
1355.3376906318083     0.828235294117647
1355.3376906318083     0.8929411764705883
1358.169934640523     0.9447058823529413
1358.169934640523     0.9705882352941178
1358.169934640523     0.9964705882352947
1358.169934640523     1.0223529411764707
1361.0021786492375     1.0482352941176472
1363.8344226579522     0.9964705882352947
1366.6666666666667     0.9188235294117648
1366.6666666666667     0.8541176470588239
1369.4989106753812     0.8023529411764705
1369.4989106753812     0.776470588235294
1369.4989106753812     0.7247058823529415
1369.4989106753812     0.6599999999999997
1372.331154684096     0.5952941176470588
1372.331154684096     0.5305882352941174
1377.9956427015252     0.4529411764705884
1375.1633986928107     0.40117647058823547
1375.1633986928107     0.3623529411764701
1377.9956427015252     0.3105882352941176
1380.8278867102397     0.23294117647058776
1383.6601307189544     0.16823529411764682
1389.3246187363836     0.12941176470588234
1394.9891067538126     0.09058823529411697
1403.4858387799563     0.09058823529411697
1414.8148148148148     0.10352941176470543
1423.3115468409587     0.09058823529411697
1428.976034858388     0.05176470588235249
1437.4727668845317     0.025882352941176023
1443.137254901961     0.012941176470588012
1454.4662309368193     0
1465.7952069716775     0
1477.124183006536     0
1485.62091503268     0
1496.9498910675381     -0.012941176470588456
1505.446623093682     -0.012941176470588456
1522.4400871459695     -0.012941176470588456
1536.6013071895425     -0.012941176470588456
1550.7625272331156     0
1559.2592592592594     0
1567.755991285403     0
1579.0849673202615     0
1598.9106753812637     -0.012941176470588456
1615.9041394335513     0.025882352941176023
1624.400871459695     0.09058823529411697
1632.897603485839     0.16823529411764682
1635.7298474945535     0.2588235294117647
1638.562091503268     0.3364705882352941
1644.2265795206972     0.4141176470588235
1649.8910675381264     0.4529411764705884
1647.058823529412     0.5176470588235293
1647.058823529412     0.5823529411764707
1647.058823529412     0.6211764705882352
1647.058823529412     0.6341176470588232
1652.723311546841     0.6729411764705882
1658.3877995642702     0.763529411764706
1661.2200435729849     0.8152941176470585
1661.2200435729849     0.8800000000000003
1661.2200435729849     0.9188235294117648
1664.0522875816994     0.9317647058823528
1664.0522875816994     0.9705882352941178
1669.7167755991286     0.9317647058823528
1669.7167755991286     0.8929411764705883
1675.381263616558     0.8411764705882354
1675.381263616558     0.8152941176470585
1675.381263616558     0.776470588235294
1678.2135076252725     0.7117647058823531
1678.2135076252725     0.6599999999999997
1678.2135076252725     0.6082352941176472
1681.045751633987     0.5564705882352943
1683.8779956427018     0.4917647058823529
1686.7102396514163     0.4141176470588235
1686.7102396514163     0.38823529411764657
1689.542483660131     0.3105882352941176
1689.542483660131     0.27176470588235313
1692.3747276688455     0.24588235294117622
1698.0392156862747     0.18117647058823483
1703.7037037037037     0.11647058823529388
1709.368191721133     0.07764705882352896
1717.8649237472766     0.05176470588235249
1726.3616557734206     0.025882352941176023
1732.0261437908496     0.012941176470588012
1740.5228758169937     0
1749.0196078431375     -0.012941176470588456
1757.5163398692812     -0.012941176470588456
1768.8453159041396     -0.012941176470588456
1774.5098039215686     -0.012941176470588456
1780.1742919389978     -0.012941176470588456
1785.838779956427     -0.012941176470588456
1791.5032679738563     -0.025882352941176467
1797.1677559912855     -0.012941176470588456
